4001.569025,90.742028
3999.640558,90.688821
3997.712091,90.791461
3995.783624,90.845038
3993.855157,90.889344
3991.926690,91.343062
3989.998223,91.611592
3988.069756,91.165957
3986.141289,90.939761
3984.212822,91.615813
3982.284355,92.151039
3980.355888,91.636369
3978.427421,90.824006
3976.498954,90.540571
3974.570487,90.418468
3972.642020,90.022734
3970.713553,89.770969
3968.785086,89.903806
3966.856619,90.068932
3964.928152,90.322913
3962.999685,90.959907
3961.071218,91.560394
3959.142751,91.591455
3957.214284,91.284730
3955.285817,91.050799
3953.357350,91.002359
3951.428883,91.185639
3949.500416,91.587851
3947.571949,91.933321
3945.643482,91.735443
3943.715015,90.718365
3941.786548,89.754595
3939.858081,89.892279
3937.929614,90.732297
3936.001147,90.912709
3934.072680,90.235817
3932.144213,89.826543
3930.215746,90.351323
3928.287279,91.060948
3926.358812,90.925644
3924.430345,90.468430
3922.501878,90.573466
3920.573411,90.568540
3918.644944,89.869389
3916.716477,89.793643
3914.788010,90.984748
3912.859543,92.061257
3910.931076,92.081437
3909.002609,91.425219
3907.074142,90.314616
3905.145675,90.011497
3903.217208,91.031827
3901.288741,91.536064
3899.360274,90.544009
3897.431807,90.212553
3895.503340,90.707232
3893.574873,90.294351
3891.646406,89.738522
3889.717939,90.226825
3887.789472,91.360522
3885.861005,92.081191
3883.932538,91.597264
3882.004071,89.764759
3880.075604,88.950760
3878.147137,90.329201
3876.218670,91.040635
3874.290203,90.721011
3872.361736,91.386257
3870.433269,91.754902
3868.504802,90.304029
3866.576335,89.336236
3864.647868,89.877721
3862.719401,89.914165
3860.790934,90.142022
3858.862467,91.859617
3856.934000,92.905713
3855.005533,92.255730
3853.077066,91.606584
3851.148599,91.040786
3849.220132,89.958559
3847.291665,90.270237
3845.363198,91.388337
3843.434731,91.813263
3841.506264,91.785791
3839.577797,91.447572
3837.649330,90.505620
3835.720863,90.000797
3833.792396,90.607575
3831.863929,90.509261
3829.935462,89.468403
3828.006995,89.594549
3826.078528,91.047563
3824.150061,91.942381
3822.221594,91.532990
3820.293127,90.879396
3818.364660,90.714645
3816.436193,90.854176
3814.507726,90.868520
3812.579259,90.313259
3810.650792,89.163824
3808.722325,88.807032
3806.793858,89.626174
3804.865391,90.444751
3802.936924,90.154431
3801.008457,89.608172
3799.079990,89.755166
3797.151523,89.871410
3795.223056,89.604066
3793.294589,89.619507
3791.366122,89.763585
3789.437655,89.719551
3787.509188,90.031686
3785.580721,90.861458
3783.652254,91.420412
3781.723787,91.309055
3779.795320,91.134047
3777.866853,91.279189
3775.938386,91.394864
3774.009919,90.986193
3772.081452,90.469172
3770.152985,90.606160
3768.224518,90.982117
3766.296051,90.794365
3764.367584,90.471508
3762.439117,90.623212
3760.510650,90.706254
3758.582183,90.514712
3756.653716,90.458845
3754.725249,90.378747
3752.796782,90.227501
3750.868315,90.478293
3748.939848,90.812333
3747.011381,90.507789
3745.082914,90.500943
3743.154447,91.118851
3741.225980,91.089849
3739.297513,90.227853
3737.369046,90.387533
3735.440579,90.982639
3733.512112,91.211508
3731.583645,90.933856
3729.655178,90.442183
3727.726711,90.171100
3725.798244,90.391815
3723.869777,90.599229
3721.941310,90.281441
3720.012843,90.007574
3718.084376,90.443512
3716.155909,90.905642
3714.227442,90.438208
3712.298975,89.415846
3710.370508,89.025434
3708.442041,90.093094
3706.513574,91.461220
3704.585107,91.072598
3702.656640,90.010207
3700.728173,89.614105
3698.799706,89.473012
3696.871239,89.395826
3694.942772,89.930765
3693.014305,90.620026
3691.085838,90.675229
3689.157371,90.445629
3687.228904,90.570293
3685.300437,90.595552
3683.371970,90.169442
3681.443503,90.017459
3679.515036,90.310179
3677.586569,90.677107
3675.658102,90.834998
3673.729635,90.912935
3671.801168,91.128409
3669.872701,91.482476
3667.944234,91.714523
3666.015767,91.503003
3664.087300,90.795599
3662.158833,90.238968
3660.230366,90.020222
3658.301899,90.028195
3656.373432,90.060780
3654.444965,90.105387
3652.516498,90.303480
3650.588031,90.475898
3648.659564,90.451860
3646.731097,90.158984
3644.802630,89.444453
3642.874163,89.097458
3640.945696,89.755795
3639.017229,90.464909
3637.088762,90.086945
3635.160295,89.706757
3633.231828,90.614404
3631.303361,91.102031
3629.374894,90.272221
3627.446427,89.907714
3625.517960,90.367627
3623.589493,90.127392
3621.661026,90.078716
3619.732559,90.907594
3617.804092,91.111551
3615.875625,90.029679
3613.947158,89.865389
3612.018691,90.988527
3610.090224,91.440851
3608.161757,90.862419
3606.233290,90.454415
3604.304823,90.462231
3602.376356,90.611896
3600.447889,90.953684
3598.519422,91.175266
3596.590955,90.926336
3594.662488,90.740614
3592.734021,90.903697
3590.805554,90.869607
3588.877087,90.481004
3586.948620,90.474263
3585.020153,90.977358
3583.091686,90.827985
3581.163219,89.755308
3579.234752,89.215912
3577.306285,89.668424
3575.377818,90.396593
3573.449351,91.030046
3571.520884,91.414712
3569.592417,90.748025
3567.663950,89.592112
3565.735483,89.791014
3563.807016,90.978770
3561.878549,90.455560
3559.950082,89.377701
3558.021615,89.702501
3556.093148,90.334530
3554.164681,89.681587
3552.236214,88.728164
3550.307747,88.786437
3548.379280,89.522038
3546.450813,90.207305
3544.522346,90.866891
3542.593879,91.354191
3540.665412,91.213223
3538.736945,90.692186
3536.808478,90.369961
3534.880011,90.251648
3532.951544,90.119245
3531.023077,90.148264
3529.094610,90.437423
3527.166143,90.620430
3525.237676,90.713547
3523.309209,90.926366
3521.380742,90.676753
3519.452275,89.750417
3517.523808,89.281415
3515.595341,89.901233
3513.666874,90.585503
3511.738407,90.508114
3509.809940,90.276943
3507.881473,90.413618
3505.953006,90.471330
3504.024539,90.116942
3502.096072,89.739796
3500.167605,89.821419
3498.239138,90.352413
3496.310671,90.754111
3494.382204,90.594835
3492.453737,90.338164
3490.525270,90.523487
3488.596803,90.775395
3486.668336,90.777400
3484.739869,90.813816
3482.811402,90.874284
3480.882935,90.659554
3478.954468,90.509484
3477.026001,90.805453
3475.097534,91.046226
3473.169067,90.849878
3471.240600,90.613953
3469.312133,90.478579
3467.383666,90.190410
3465.455199,89.973009
3463.526732,90.075750
3461.598265,90.209307
3459.669798,90.402599
3457.741331,91.001530
3455.812864,91.444421
3453.884397,91.250944
3451.955930,90.904812
3450.027463,90.726622
3448.098996,90.593848
3446.170529,90.617120
3444.242062,90.657153
3442.313595,90.209987
3440.385128,89.658876
3438.456661,89.772100
3436.528194,90.101775
3434.599727,89.909225
3432.671260,89.773958
3430.742793,90.279062
3428.814326,90.759744
3426.885859,90.722937
3424.957392,90.528194
3423.028925,90.151183
3421.100458,89.637204
3419.171991,89.672537
3417.243524,90.198511
3415.315057,90.337662
3413.386590,90.092073
3411.458123,90.084229
3409.529656,90.168302
3407.601189,89.940186
3405.672722,89.700063
3403.744255,89.823335
3401.815788,90.121254
3399.887321,90.223238
3397.958854,90.032903
3396.030387,89.906297
3394.101920,90.208437
3392.173453,90.531103
3390.244986,90.270819
3388.316519,89.822874
3386.388052,89.801780
3384.459585,89.929206
3382.531118,90.147730
3380.602651,90.740687
3378.674184,91.307361
3376.745717,91.475290
3374.817250,91.540039
3372.888783,91.544052
3370.960316,91.232942
3369.031849,90.798158
3367.103382,90.318629
3365.174915,89.729721
3363.246448,89.594586
3361.317981,90.105911
3359.389514,90.430209
3357.461047,90.464322
3355.532580,90.916963
3353.604113,91.219231
3351.675646,90.788222
3349.747179,90.659251
3347.818712,91.010519
3345.890245,90.832973
3343.961778,90.331135
3342.033311,90.449813
3340.104844,91.015901
3338.176377,91.310751
3336.247910,91.090675
3334.319443,90.558979
3332.390976,90.232322
3330.462509,90.239136
3328.534042,90.082085
3326.605575,89.923576
3324.677108,90.338426
3322.748641,90.596183
3320.820174,89.908137
3318.891707,89.411416
3316.963240,89.876236
3315.034773,90.264113
3313.106306,90.273102
3311.177839,90.500667
3309.249372,90.789247
3307.320905,90.686241
3305.392438,90.304091
3303.463971,89.911911
3301.535504,89.721942
3299.607037,89.798816
3297.678570,89.929753
3295.750103,90.083376
3293.821636,90.348285
3291.893169,90.414612
3289.964702,90.267282
3288.036235,90.426339
3286.107768,90.651636
3284.179301,90.359940
3282.250834,90.106651
3280.322367,90.212588
3278.393900,90.064258
3276.465433,89.674469
3274.536966,89.559283
3272.608499,89.711139
3270.680032,90.082383
3268.751565,90.575149
3266.823098,90.576015
3264.894631,90.075375
3262.966164,89.997778
3261.037697,90.454081
3259.109230,90.627414
3257.180763,90.377501
3255.252296,90.069956
3253.323829,89.683767
3251.395362,89.377475
3249.466895,89.618969
3247.538428,90.187723
3245.609961,90.358355
3243.681494,90.106249
3241.753027,90.122225
3239.824560,90.664315
3237.896093,91.036948
3235.967626,90.827013
3234.039159,90.584759
3232.110692,90.584797
3230.182225,90.523247
3228.253758,90.561484
3226.325291,90.760286
3224.396824,90.440957
3222.468357,89.735778
3220.539890,89.712740
3218.611423,90.292580
3216.682956,90.515495
3214.754489,90.329372
3212.826022,90.169658
3210.897555,90.149229
3208.969088,90.272005
3207.040621,90.113404
3205.112154,89.599236
3203.183687,89.568197
3201.255220,89.994228
3199.326753,89.839116
3197.398286,89.388335
3195.469819,89.607398
3193.541352,90.099233
3191.612885,90.383081
3189.684418,90.746387
3187.755951,90.781540
3185.827484,90.254707
3183.899017,90.253767
3181.970550,90.843397
3180.042083,90.708318
3178.113616,90.147922
3176.185149,90.235314
3174.256682,90.497199
3172.328215,90.497034
3170.399748,90.346439
3168.471281,89.901665
3166.542814,89.539809
3164.614347,89.799040
3162.685880,89.958532
3160.757413,89.455126
3158.828946,89.191083
3156.900479,89.544659
3154.972012,89.692442
3153.043545,89.430080
3151.115078,89.267016
3149.186611,89.383869
3147.258144,89.798633
3145.329677,90.169930
3143.401210,89.818466
3141.472743,89.383624
3139.544276,89.882215
3137.615809,90.579953
3135.687342,90.293370
3133.758875,89.658233
3131.830408,89.883983
3129.901941,90.653984
3127.973474,90.860655
3126.045007,90.475944
3124.116540,90.231369
3122.188073,90.124822
3120.259606,89.746196
3118.331139,89.414524
3116.402672,89.492520
3114.474205,89.696523
3112.545738,90.107712
3110.617271,90.957150
3108.688804,91.232491
3106.760337,90.470222
3104.831870,90.225632
3102.903403,91.027595
3100.974936,91.393416
3099.046469,90.897633
3097.118002,90.722227
3095.189535,90.965463
3093.261068,90.665438
3091.332601,89.997807
3089.404134,89.909318
3087.475667,90.341158
3085.547200,90.583559
3083.618733,90.595318
3081.690266,90.652499
3079.761799,90.493873
3077.833332,89.981411
3075.904865,89.683107
3073.976398,89.849050
3072.047931,90.082985
3070.119464,90.410954
3068.190997,90.799999
3066.262530,90.701196
3064.334063,90.184958
3062.405596,89.944660
3060.477129,89.984695
3058.548662,90.028277
3056.620195,90.286801
3054.691728,90.605868
3052.763261,90.479013
3050.834794,90.243690
3048.906327,90.436843
3046.977860,90.670078
3045.049393,90.530676
3043.120926,90.293861
3041.192459,90.104469
3039.263992,89.940025
3037.335525,90.091529
3035.407058,90.526633
3033.478591,90.735510
3031.550124,90.577439
3029.621657,90.471845
3027.693190,90.565777
3025.764723,90.419483
3023.836256,89.954506
3021.907789,89.889369
3019.979322,90.429473
3018.050855,90.722162
3016.122388,90.388323
3014.193921,90.057552
3012.265454,90.010803
3010.336987,90.046071
3008.408520,90.195616
3006.480053,90.331979
3004.551586,90.189846
3002.623119,90.078551
3000.694652,90.085244
2998.766185,89.819354
2996.837718,89.474273
2994.909251,89.457529
2992.980784,89.590113
2991.052317,89.806439
2989.123850,90.264950
2987.195383,90.483159
2985.266916,89.997524
2983.338449,89.457886
2981.409982,89.595431
2979.481515,90.082211
2977.553048,90.316750
2975.624581,90.407868
2973.696114,90.614967
2971.767647,90.655948
2969.839180,90.315547
2967.910713,90.076812
2965.982246,90.139266
2964.053779,90.105711
2962.125312,90.037913
2960.196845,90.164198
2958.268378,89.994182
2956.339911,89.261043
2954.411444,88.449133
2952.482977,87.521992
2950.554510,86.122539
2948.626043,84.787248
2946.697576,84.077565
2944.769109,83.712642
2942.840642,83.366021
2940.912175,82.877039
2938.983708,82.256800
2937.055241,82.011675
2935.126774,81.666526
2933.198307,79.523053
2931.269840,76.850264
2929.341373,76.720397
2927.412906,78.919866
2925.484439,80.586767
2923.555972,80.887488
2921.627505,81.040547
2919.699038,81.628845
2917.770571,82.564061
2915.842104,83.504179
2913.913637,83.901596
2911.985170,83.985994
2910.056703,84.433256
2908.128236,85.030328
2906.199769,85.441643
2904.271302,86.023170
2902.342835,86.688854
2900.414368,86.965992
2898.485901,87.165967
2896.557434,87.532147
2894.628967,87.742835
2892.700500,87.865191
2890.772033,88.042405
2888.843566,88.117239
2886.915099,88.261918
2884.986632,88.633516
2883.058165,88.770365
2881.129698,88.509567
2879.201231,88.295742
2877.272764,88.113350
2875.344297,87.721965
2873.415830,87.565363
2871.487363,87.797687
2869.558896,87.609161
2867.630429,87.033771
2865.701962,87.241770
2863.773495,87.764339
2861.845028,86.939077
2859.916561,85.681929
2857.988094,85.922476
2856.059627,86.923217
2854.131160,86.882682
2852.202693,86.112224
2850.274226,85.719609
2848.345759,85.786291
2846.417292,86.235716
2844.488825,87.035243
2842.560358,87.651051
2840.631891,87.975679
2838.703424,88.492031
2836.774957,89.012914
2834.846490,89.130132
2832.918023,89.192794
2830.989556,89.403696
2829.061089,89.473485
2827.132622,89.420537
2825.204155,89.243512
2823.275688,89.086796
2821.347221,89.468794
2819.418754,90.024624
2817.490287,89.797206
2815.561820,89.241753
2813.633353,89.373454
2811.704886,89.787605
2809.776419,89.785343
2807.847952,89.687245
2805.919485,89.720670
2803.991018,89.681306
2802.062551,89.654240
2800.134084,89.646143
2798.205617,89.537839
2796.277150,89.594781
2794.348683,89.769395
2792.420216,89.588989
2790.491749,89.295238
2788.563282,89.288301
2786.634815,89.498938
2784.706348,89.928673
2782.777881,90.397377
2780.849414,90.284835
2778.920947,89.670836
2776.992480,89.340280
2775.064013,89.474788
2773.135546,89.748953
2771.207079,90.056831
2769.278612,90.265242
2767.350145,90.270017
2765.421678,90.236526
2763.493211,90.067201
2761.564744,89.666617
2759.636277,89.592348
2757.707810,89.967531
2755.779343,90.053760
2753.850876,89.757666
2751.922409,89.580550
2749.993942,89.620847
2748.065475,89.784589
2746.137008,90.027704
2744.208541,90.107064
2742.280074,89.976511
2740.351607,89.822800
2738.423140,89.509551
2736.494673,89.069763
2734.566206,89.093141
2732.637739,89.642348
2730.709272,90.015680
2728.780805,90.009177
2726.852338,89.943203
2724.923871,89.884955
2722.995404,89.931856
2721.066937,90.071125
2719.138470,89.876555
2717.210003,89.453294
2715.281536,89.435105
2713.353069,89.706338
2711.424602,89.753458
2709.496135,89.768118
2707.567668,89.997837
2705.639201,90.110174
2703.710734,90.008121
2701.782267,89.963307
2699.853800,89.912552
2697.925333,89.795056
2695.996866,89.844725
2694.068399,89.912847
2692.139932,89.702218
2690.211465,89.598490
2688.282998,89.860620
2686.354531,89.906706
2684.426064,89.611973
2682.497597,89.548539
2680.569130,89.752921
2678.640663,89.765870
2676.712196,89.688533
2674.783729,89.821202
2672.855262,89.793544
2670.926795,89.361095
2668.998328,89.152884
2667.069861,89.495007
2665.141394,89.757519
2663.212927,89.721553
2661.284460,89.849379
2659.355993,89.926192
2657.427526,89.573145
2655.499059,89.520500
2653.570592,90.089336
2651.642125,90.172748
2649.713658,89.613499
2647.785191,89.371366
2645.856724,89.540140
2643.928257,89.603022
2641.999790,89.566352
2640.071323,89.529486
2638.142856,89.487357
2636.214389,89.684736
2634.285922,90.038713
2632.357455,90.083295
2630.428988,89.890602
2628.500521,89.837866
2626.572054,89.925762
2624.643587,90.108688
2622.715120,90.279804
2620.786653,90.125346
2618.858186,89.947746
2616.929719,90.080107
2615.001252,89.929356
2613.072785,89.484912
2611.144318,89.578313
2609.215851,89.969830
2607.287384,89.870575
2605.358917,89.696048
2603.430450,89.932299
2601.501983,90.033426
2599.573516,89.808804
2597.645049,89.660937
2595.716582,89.485858
2593.788115,89.257386
2591.859648,89.480375
2589.931181,90.063106
2588.002714,90.315086
2586.074247,90.066215
2584.145780,89.653375
2582.217313,89.551355
2580.288846,89.899305
2578.360379,90.034412
2576.431912,89.576165
2574.503445,89.377904
2572.574978,89.900001
2570.646511,90.278893
2568.718044,90.083691
2566.789577,89.954689
2564.861110,90.043054
2562.932643,89.913961
2561.004176,89.738681
2559.075709,89.936187
2557.147242,90.284767
2555.218775,90.448927
2553.290308,90.519872
2551.361841,90.493224
2549.433374,90.171725
2547.504907,89.875853
2545.576440,89.998154
2543.647973,90.242687
2541.719506,90.225561
2539.791039,90.119585
2537.862572,90.102017
2535.934105,90.046934
2534.005638,90.002457
2532.077171,90.041575
2530.148704,89.944969
2528.220237,89.734569
2526.291770,89.761535
2524.363303,90.010484
2522.434836,90.161788
2520.506369,90.123456
2518.577902,89.999196
2516.649435,90.000308
2514.720968,90.179838
2512.792501,90.098146
2510.864034,89.738565
2508.935567,89.716933
2507.007100,90.008508
2505.078633,90.069964
2503.150166,90.037104
2501.221699,90.134113
2499.293232,90.005979
2497.364765,89.722525
2495.436298,89.716239
2493.507831,89.758679
2491.579364,89.650482
2489.650897,89.757724
2487.722430,89.953787
2485.793963,89.873894
2483.865496,89.962234
2481.937029,90.423390
2480.008562,90.538293
2478.080095,90.292227
2476.151628,90.249105
2474.223161,90.237207
2472.294694,90.024699
2470.366227,89.890871
2468.437760,89.946866
2466.509293,90.010190
2464.580826,89.961547
2462.652359,89.739813
2460.723892,89.477174
2458.795425,89.433851
2456.866958,89.540632
2454.938491,89.599717
2453.010024,89.734301
2451.081557,89.985575
2449.153090,90.118868
2447.224623,90.135808
2445.296156,90.135075
2443.367689,89.967636
2441.439222,89.726603
2439.510755,89.669385
2437.582288,89.696783
2435.653821,89.662980
2433.725354,89.725299
2431.796887,89.886511
2429.868420,89.883747
2427.939953,89.752832
2426.011486,89.800433
2424.083019,90.010940
2422.154552,90.082643
2420.226085,89.931643
2418.297618,89.726044
2416.369151,89.638862
2414.440684,89.754109
2412.512217,89.881928
2410.583750,89.705546
2408.655283,89.473987
2406.726816,89.633632
2404.798349,89.900080
2402.869882,89.850077
2400.941415,89.717095
2399.012948,89.720899
2397.084481,89.625984
2395.156014,89.435345
2393.227547,89.415134
2391.299080,89.533845
2389.370613,89.652486
2387.442146,89.717245
2385.513679,89.604737
2383.585212,89.467059
2381.656745,89.688738
2379.728278,90.100098
2377.799811,90.208468
2375.871344,90.160330
2373.942877,90.274638
2372.014410,90.331982
2370.085943,90.297999
2368.157476,90.281818
2366.229009,90.117392
2364.300542,89.963871
2362.372075,90.068883
2360.443608,90.189614
2358.515141,90.479249
2356.586674,91.058232
2354.658207,90.972896
2352.729740,90.181066
2350.801273,89.909523
2348.872806,90.258419
2346.944339,90.539898
2345.015872,90.807900
2343.087405,91.090870
2341.158938,90.822691
2339.230471,90.102623
2337.302004,89.553148
2335.373537,89.390659
2333.445070,89.804872
2331.516603,90.440457
2329.588136,90.510736
2327.659669,90.190697
2325.731202,90.246828
2323.802735,90.540513
2321.874268,90.604364
2319.945801,90.560012
2318.017334,90.546441
2316.088867,90.463623
2314.160400,90.373807
2312.231933,90.393190
2310.303466,90.448369
2308.374999,90.330054
2306.446532,89.984363
2304.518065,89.851303
2302.589598,90.208591
2300.661131,90.479705
2298.732664,90.182653
2296.804197,89.795611
2294.875730,89.807013
2292.947263,90.011990
2291.018796,90.203988
2289.090329,90.386365
2287.161862,90.350092
2285.233395,90.056024
2283.304928,89.903095
2281.376461,89.971722
2279.447994,89.857465
2277.519527,89.566926
2275.591060,89.593600
2273.662593,89.948441
2271.734126,90.066491
2269.805659,89.787459
2267.877192,89.583040
2265.948725,89.619000
2264.020258,89.713508
2262.091791,89.842070
2260.163324,90.036291
2258.234857,90.130614
2256.306390,90.077514
2254.377923,90.041255
2252.449456,90.030770
2250.520989,89.982018
2248.592522,90.013305
2246.664055,90.138043
2244.735588,90.161381
2242.807121,90.075111
2240.878654,90.016654
2238.950187,89.952333
2237.021720,89.863293
2235.093253,89.850675
2233.164786,89.859755
2231.236319,89.862931
2229.307852,89.981478
2227.379385,90.106257
2225.450918,89.979590
2223.522451,89.692526
2221.593984,89.564174
2219.665517,89.674295
2217.737050,89.888066
2215.808583,90.062329
2213.880116,90.081662
2211.951649,89.960102
2210.023182,89.885925
2208.094715,89.981685
2206.166248,90.135525
2204.237781,90.141116
2202.309314,89.937800
2200.380847,89.754325
2198.452380,89.840199
2196.523913,89.962938
2194.595446,89.791510
2192.666979,89.583344
2190.738512,89.757815
2188.810045,90.096850
2186.881578,90.167789
2184.953111,90.040601
2183.024644,89.939444
2181.096177,89.875852
2179.167710,89.925048
2177.239243,90.111681
2175.310776,90.194996
2173.382309,90.127960
2171.453842,90.142283
2169.525375,90.169585
2167.596908,90.034143
2165.668441,89.974851
2163.739974,90.106092
2161.811507,90.110420
2159.883040,89.942977
2157.954573,89.888165
2156.026106,90.024380
2154.097639,90.124051
2152.169172,90.005206
2150.240705,89.807932
2148.312238,89.803431
2146.383771,89.911347
2144.455304,89.879963
2142.526837,89.871870
2140.598370,90.110382
2138.669903,90.283777
2136.741436,90.109553
2134.812969,89.884086
2132.884502,89.910390
2130.956035,90.154401
2129.027568,90.478525
2127.099101,90.639282
2125.170634,90.505730
2123.242167,90.321718
2121.313700,90.283081
2119.385233,90.278819
2117.456766,90.216898
2115.528299,90.126606
2113.599832,90.062923
2111.671365,90.097943
2109.742898,90.150775
2107.814431,90.062581
2105.885964,89.965813
2103.957497,90.016010
2102.029030,90.018062
2100.100563,89.918427
2098.172096,89.964910
2096.243629,90.064117
2094.315162,89.967226
2092.386695,89.861580
2090.458228,89.816005
2088.529761,89.712860
2086.601294,89.767685
2084.672827,90.126961
2082.744360,90.375616
2080.815893,90.213743
2078.887426,89.950275
2076.958959,89.917452
2075.030492,90.015355
2073.102025,90.041043
2071.173558,90.005286
2069.245091,89.990570
2067.316624,89.968550
2065.388157,89.933533
2063.459690,89.966760
2061.531223,90.010876
2059.602756,89.951008
2057.674289,89.931840
2055.745822,90.014842
2053.817355,90.066355
2051.888888,90.121407
2049.960421,90.206600
2048.031954,90.112902
2046.103487,89.901854
2044.175020,89.874922
2042.246553,89.927090
2040.318086,89.871186
2038.389619,89.935276
2036.461152,90.135551
2034.532685,90.150085
2032.604218,90.089654
2030.675751,90.186130
2028.747284,90.187572
2026.818817,90.013244
2024.890350,89.937788
2022.961883,89.861214
2021.033416,89.826271
2019.104949,90.179354
2017.176482,90.585293
2015.248015,90.423972
2013.319548,90.012986
2011.391081,89.974567
2009.462614,90.129777
2007.534147,90.159796
2005.605680,90.226438
2003.677213,90.366689
2001.748746,90.300889
1999.820279,90.042572
1997.891812,89.913951
1995.963345,89.993080
1994.034878,90.045844
1992.106411,89.946044
1990.177944,89.884462
1988.249477,90.010588
1986.321010,90.128035
1984.392543,90.075679
1982.464076,89.997105
1980.535609,90.040834
1978.607142,90.117032
1976.678675,90.141056
1974.750208,90.175425
1972.821741,90.215975
1970.893274,90.172980
1968.964807,90.123069
1967.036340,90.207187
1965.107873,90.290461
1963.179406,90.142708
1961.250939,89.930390
1959.322472,89.981766
1957.394005,90.210373
1955.465538,90.225197
1953.537071,90.040876
1951.608604,90.030818
1949.680137,90.308778
1947.751670,90.573704
1945.823203,90.535396
1943.894736,90.304542
1941.966269,90.157373
1940.037802,90.146652
1938.109335,90.146655
1936.180868,90.107214
1934.252401,90.051392
1932.323934,89.964547
1930.395467,89.822001
1928.467000,89.706458
1926.538533,89.806729
1924.610066,90.146717
1922.681599,90.464222
1920.753132,90.562021
1918.824665,90.627011
1916.896198,90.659862
1914.967731,90.411048
1913.039264,90.069396
1911.110797,90.008647
1909.182330,90.149872
1907.253863,90.258149
1905.325396,90.350195
1903.396929,90.446957
1901.468462,90.438749
1899.539995,90.359986
1897.611528,90.318156
1895.683061,90.287606
1893.754594,90.286749
1891.826127,90.415579
1889.897660,90.596688
1887.969193,90.620429
1886.040726,90.398617
1884.112259,90.098023
1882.183792,89.948980
1880.255325,90.041500
1878.326858,90.193280
1876.398391,90.191431
1874.469924,90.110136
1872.541457,90.089596
1870.612990,90.093797
1868.684523,90.109402
1866.756056,90.198731
1864.827589,90.233637
1862.899122,90.102833
1860.970655,89.980277
1859.042188,89.985121
1857.113721,90.014759
1855.185254,90.092443
1853.256787,90.295082
1851.328320,90.388439
1849.399853,90.337599
1847.471386,90.504085
1845.542919,90.734860
1843.614452,90.545539
1841.685985,90.171886
1839.757518,90.212383
1837.829051,90.388105
1835.900584,90.396588
1833.972117,90.487603
1832.043650,90.738062
1830.115183,90.846128
1828.186716,90.677315
1826.258249,90.345893
1824.329782,90.043523
1822.401315,90.031643
1820.472848,90.301257
1818.544381,90.342879
1816.615914,90.091648
1814.687447,90.067476
1812.758980,90.239983
1810.830513,90.201201
1808.902046,90.075626
1806.973579,90.178885
1805.045112,90.381919
1803.116645,90.515044
1801.188178,90.619208
1799.259711,90.659735
1797.331244,90.499001
1795.402777,90.242665
1793.474310,90.118952
1791.545843,90.173683
1789.617376,90.313799
1787.688909,90.396862
1785.760442,90.408178
1783.831975,90.366138
1781.903508,90.320796
1779.975041,90.352640
1778.046574,90.417433
1776.118107,90.428779
1774.189640,90.401787
1772.261173,90.362095
1770.332706,90.320442
1768.404239,90.314014
1766.475772,90.289578
1764.547305,90.199555
1762.618838,90.148175
1760.690371,90.206263
1758.761904,90.285935
1756.833437,90.362231
1754.904970,90.438906
1752.976503,90.343129
1751.048036,90.095565
1749.119569,90.082960
1747.191102,90.419721
1745.262635,90.600271
1743.334168,90.563316
1741.405701,90.515709
1739.477234,90.379825
1737.548767,90.161486
1735.620300,90.129055
1733.691833,90.349602
1731.763366,90.592272
1729.834899,90.541448
1727.906432,90.312931
1725.977965,90.147259
1724.049498,90.179511
1722.121031,90.366346
1720.192564,90.512048
1718.264097,90.542103
1716.335630,90.517827
1714.407163,90.556945
1712.478696,90.647151
1710.550229,90.717455
1708.621762,90.807423
1706.693295,90.874968
1704.764828,90.759033
1702.836361,90.535742
1700.907894,90.413600
1698.979427,90.435336
1697.050960,90.497408
1695.122493,90.499264
1693.194026,90.411280
1691.265559,90.349849
1689.337092,90.459033
1687.408625,90.645399
1685.480158,90.664339
1683.551691,90.493736
1681.623224,90.430017
1679.694757,90.559099
1677.766290,90.590487
1675.837823,90.436446
1673.909356,90.283679
1671.980889,90.440412
1670.052422,90.684732
1668.123955,90.637743
1666.195488,90.472100
1664.267021,90.589099
1662.338554,90.774305
1660.410087,90.771799
1658.481620,90.769236
1656.553153,90.905014
1654.624686,91.019237
1652.696219,91.083142
1650.767752,91.072312
1648.839285,90.887789
1646.910818,90.704794
1644.982351,90.840860
1643.053884,91.202540
1641.125417,91.211893
1639.196950,90.958361
1637.268483,90.731176
1635.340016,90.746555
1633.411549,91.021755
1631.483082,91.098016
1629.554615,90.860723
1627.626148,90.679451
1625.697681,90.833987
1623.769214,91.012415
1621.840747,90.843493
1619.912280,90.672358
1617.983813,90.833451
1616.055346,91.038170
1614.126879,91.005485
1612.198412,90.969067
1610.269945,91.083870
1608.341478,91.192484
1606.413011,91.163960
1604.484544,90.996149
1602.556077,90.805166
1600.627610,90.827981
1598.699143,91.031190
1596.770676,91.058397
1594.842209,90.941628
1592.913742,90.984345
1590.985275,91.072287
1589.056808,90.974994
1587.128341,90.885738
1585.199874,90.997052
1583.271407,91.201577
1581.342940,91.390113
1579.414473,91.455212
1577.486006,91.344555
1575.557539,91.218924
1573.629072,91.269909
1571.700605,91.234762
1569.772138,91.042063
1567.843671,90.905746
1565.915204,90.900759
1563.986737,91.022561
1562.058270,91.257966
1560.129803,91.348435
1558.201336,91.061666
1556.272869,90.994076
1554.344402,91.369068
1552.415935,91.455957
1550.487468,91.347183
1548.559001,91.386961
1546.630534,91.392522
1544.702067,91.205106
1542.773600,91.206963
1540.845133,91.480983
1538.916666,91.379197
1536.988199,90.993226
1535.059732,91.115031
1533.131265,91.329801
1531.202798,91.381583
1529.274331,91.442276
1527.345864,91.539041
1525.417397,91.442721
1523.488930,91.280439
1521.560463,91.388427
1519.631996,91.496634
1517.703529,91.298424
1515.775062,91.269580
1513.846595,91.557215
1511.918128,91.689798
1509.989661,91.611547
1508.061194,91.773667
1506.132727,92.118529
1504.204260,91.862375
1502.275793,91.498389
1500.347326,91.532562
1498.418859,91.582707
1496.490392,91.473029
1494.561925,91.486101
1492.633458,91.662715
1490.704991,91.699472
1488.776524,91.546217
1486.848057,91.407417
1484.919590,91.408072
1482.991123,91.452748
1481.062656,91.494263
1479.134189,91.495054
1477.205722,91.376297
1475.277255,91.189385
1473.348788,91.118342
1471.420321,91.161844
1469.491854,91.110514
1467.563387,91.034228
1465.634920,91.023950
1463.706453,90.973650
1461.777986,90.956912
1459.849519,91.062695
1457.921052,90.983481
1455.992585,90.357260
1454.064118,89.829610
1452.135651,89.895712
1450.207184,89.943567
1448.278717,89.838050
1446.350250,89.905150
1444.421783,90.165405
1442.493316,90.373030
1440.564849,90.477599
1438.636382,90.572807
1436.707915,90.744492
1434.779448,90.992690
1432.850981,91.231213
1430.922514,91.533106
1428.994047,91.717017
1427.065580,91.414853
1425.137113,91.036955
1423.208646,91.145910
1421.280179,91.497546
1419.351712,91.628298
1417.423245,91.635070
1415.494778,91.614794
1413.566311,91.474654
1411.637844,91.414904
1409.709377,91.543977
1407.780910,91.608203
1405.852443,91.607843
1403.923976,91.701232
1401.995509,91.634048
1400.067042,91.423415
1398.138575,91.543746
1396.210108,91.833322
1394.281641,91.788848
1392.353174,91.772046
1390.424707,91.959077
1388.496240,91.938110
1386.567773,91.681212
1384.639306,91.503037
1382.710839,91.466828
1380.782372,91.585815
1378.853905,91.971982
1376.925438,92.276880
1374.996971,92.164983
1373.068504,91.902081
1371.140037,91.840835
1369.211570,91.888283
1367.283103,91.951843
1365.354636,92.029696
1363.426169,91.956806
1361.497702,91.656732
1359.569235,91.394693
1357.640768,91.351619
1355.712301,91.461325
1353.783834,91.647157
1351.855367,91.765331
1349.926900,91.763624
1347.998433,91.786742
1346.069966,91.907622
1344.141499,92.004669
1342.213032,91.986796
1340.284565,91.893986
1338.356098,91.815720
1336.427631,91.853738
1334.499164,91.996370
1332.570697,92.064649
1330.642230,91.941515
1328.713763,91.749605
1326.785296,91.664240
1324.856829,91.684940
1322.928362,91.753208
1320.999895,91.835121
1319.071428,91.922854
1317.142961,92.051720
1315.214494,92.208040
1313.286027,92.261670
1311.357560,92.137451
1309.429093,91.954618
1307.500626,91.843468
1305.572159,91.836019
1303.643692,91.927495
1301.715225,92.040692
1299.786758,92.071613
1297.858291,92.075901
1295.929824,92.145762
1294.001357,92.156197
1292.072890,91.991612
1290.144423,91.840026
1288.215956,91.869017
1286.287489,91.980246
1284.359022,91.993841
1282.430555,91.864056
1280.502088,91.701013
1278.573621,91.639820
1276.645154,91.721400
1274.716687,91.899536
1272.788220,92.058835
1270.859753,92.062828
1268.931286,91.960013
1267.002819,91.961482
1265.074352,92.040855
1263.145885,91.985148
1261.217418,91.858361
1259.288951,91.832540
1257.360484,91.793198
1255.432017,91.684862
1253.503550,91.679718
1251.575083,91.748712
1249.646616,91.793165
1247.718149,91.887954
1245.789682,92.002569
1243.861215,92.016496
1241.932748,92.036197
1240.004281,92.137181
1238.075814,92.145166
1236.147347,92.054195
1234.218880,92.068529
1232.290413,92.141055
1230.361946,92.104577
1228.433479,92.064907
1226.505012,92.145240
1224.576545,92.219097
1222.648078,92.210257
1220.719611,92.230562
1218.791144,92.279933
1216.862677,92.260881
1214.934210,92.205382
1213.005743,92.206566
1211.077276,92.227334
1209.148809,92.201521
1207.220342,92.203106
1205.291875,92.300802
1203.363408,92.418267
1201.434941,92.480053
1199.506474,92.456180
1197.578007,92.308081
1195.649540,92.177369
1193.721073,92.275724
1191.792606,92.405194
1189.864139,92.237179
1187.935672,92.033117
1186.007205,92.160940
1184.078738,92.287156
1182.150271,92.174873
1180.221804,92.097138
1178.293337,92.161098
1176.364870,92.208369
1174.436403,92.303345
1172.507936,92.505439
1170.579469,92.573915
1168.651002,92.409497
1166.722535,92.237241
1164.794068,92.157195
1162.865601,92.086299
1160.937134,92.096342
1159.008667,92.271157
1157.080200,92.406873
1155.151733,92.315330
1153.223266,92.190084
1151.294799,92.257795
1149.366332,92.356013
1147.437865,92.309013
1145.509398,92.160057
1143.580931,92.032804
1141.652464,92.073053
1139.723997,92.284534
1137.795530,92.370037
1135.867063,92.188665
1133.938596,92.072413
1132.010129,92.202459
1130.081662,92.317547
1128.153195,92.308297
1126.224728,92.294992
1124.296261,92.251603
1122.367794,92.210557
1120.439327,92.285654
1118.510860,92.362249
1116.582393,92.490955
1114.653926,92.824781
1112.725459,92.893814
1110.796992,92.479831
1108.868525,92.262853
1106.940058,92.406836
1105.011591,92.230982
1103.083124,91.781649
1101.154657,91.695200
1099.226190,91.847457
1097.297723,91.890057
1095.369256,92.021399
1093.440789,92.209676
1091.512322,92.081030
1089.583855,91.776950
1087.655388,91.767719
1085.726921,92.077104
1083.798454,92.299654
1081.869987,92.109115
1079.941520,91.820844
1078.013053,91.874381
1076.084586,92.003898
1074.156119,91.922272
1072.227652,92.047931
1070.299185,92.456470
1068.370718,92.584958
1066.442251,92.496765
1064.513784,92.626802
1062.585317,92.665631
1060.656850,92.352093
1058.728383,92.156853
1056.799916,92.216710
1054.871449,92.199276
1052.942982,92.213763
1051.014515,92.390209
1049.086048,92.364907
1047.157581,92.061375
1045.229114,91.801689
1043.300647,91.653326
1041.372180,91.666386
1039.443713,91.820379
1037.515246,91.908126
1035.586779,91.947893
1033.658312,92.076093
1031.729845,92.179194
1029.801378,92.198812
1027.872911,92.198531
1025.944444,92.073101
1024.015977,91.917213
1022.087510,92.082029
1020.159043,92.374293
1018.230576,92.252437
1016.302109,91.876658
1014.373642,91.830052
1012.445175,92.114408
1010.516708,92.245086
1008.588241,92.066995
1006.659774,91.923732
1004.731307,92.117017
1002.802840,92.360101
1000.874373,92.269692
998.945906,92.094548
997.017439,92.151015
995.088972,92.164506
993.160505,91.971708
991.232038,91.932872
989.303571,92.101134
987.375104,92.041535
985.446637,91.690101
983.518170,91.466613
981.589703,91.569723
979.661236,91.742250
977.732769,91.660661
975.804302,91.401066
973.875835,91.366271
971.947368,91.566756
970.018901,91.508231
968.090434,91.015814
966.161967,90.511164
964.233500,90.230206
962.305033,90.037281
960.376566,90.031735
958.448099,90.376904
956.519632,90.714987
954.591165,90.796328
952.662698,90.907340
950.734231,91.026965
948.805764,90.843320
946.877297,90.654574
944.948830,90.780227
943.020363,90.668454
941.091896,90.165557
939.163429,90.046184
937.234962,90.221857
935.306495,90.009476
933.378028,89.652091
931.449561,89.583684
929.521094,89.419432
927.592627,89.013569
925.664160,88.855701
923.735693,89.006615
921.807226,89.081723
919.878759,88.915435
917.950292,88.589799
916.021825,88.375672
914.093358,88.420810
912.164891,88.346321
910.236424,87.994347
908.307957,87.887185
906.379490,87.994123
904.451023,87.772509
902.522556,87.518962
900.594089,87.562096
898.665622,87.545864
896.737155,87.468362
894.808688,87.641598
892.880221,87.664984
890.951754,87.140403
889.023287,86.600686
887.094820,86.587189
885.166353,87.049365
883.237886,87.729092
881.309419,88.105284
879.380952,87.800356
877.452485,87.561454
875.524018,87.853305
873.595551,87.482409
871.667084,86.653884
869.738617,87.660037
867.810150,89.757507
865.881683,89.960385
863.953216,88.746198
862.024749,88.089444
860.096282,87.407773
858.167815,87.047899
856.239348,89.222375
854.310881,92.542293
852.382414,94.688576
850.453947,96.865286
848.525480,95.687874
846.597013,90.069089
844.668546,88.363220
842.740079,91.724900
840.811612,91.549774
838.883145,89.321859
836.954678,90.617538
835.026211,92.277408
833.097744,92.123940
831.169277,91.983053
829.240810,92.185811
827.312343,91.997623
825.383876,91.833292
823.455409,91.928750
821.526942,92.004769
819.598475,92.241812
817.670008,92.293231
815.741541,91.660223
813.813074,91.353521
811.884607,92.108976
809.956140,92.657174
808.027673,92.343951
806.099206,92.203336
804.170739,92.260918
802.242272,91.958828
800.313805,92.081710
798.385338,92.560324
796.456871,92.424124
794.528404,92.110355
792.599937,92.266160
790.671470,92.304419
788.743003,92.040910
786.814536,91.958949
784.886069,91.992326
782.957602,92.093633
781.029135,92.352472
779.100668,92.185957
777.172201,91.477588
775.243734,91.109444
773.315267,91.044499
771.386800,90.710350
769.458333,90.729605
767.529866,91.215142
765.601399,91.026878
763.672932,90.622763
761.744465,90.926181
759.815998,90.994035
757.887531,90.110469
755.959064,89.262238
754.030597,88.987986
752.102130,89.109353
750.173663,89.701951
748.245196,90.291442
746.316729,90.186515
744.388262,89.900920
742.459795,89.895675
740.531328,89.773143
738.602861,89.776464
736.674394,90.331901
734.745927,90.595578
732.817460,90.013316
730.888993,89.609957
728.960526,89.736144
727.032059,89.656275
725.103592,89.254867
723.175125,89.110772
721.246658,89.355524
719.318191,89.583547
717.389724,89.532987
715.461257,89.439526
713.532790,89.686836
711.604323,90.152984
709.675856,90.262213
707.747389,90.017432
705.818922,90.244088
703.890455,91.207229
701.961988,91.846603
700.033521,91.336535
698.105054,90.558252
696.176587,90.696292
694.248120,91.122524
692.319653,90.935902
690.391186,90.696331
688.462719,91.124607
686.534252,91.628964
684.605785,91.569331
682.677318,91.367234
680.748851,91.297825
678.820384,91.176079
676.891917,91.116710
674.963450,90.991921
673.034983,90.517042
671.106516,90.363800
669.178049,91.091271
667.249582,91.452917
665.321115,90.447606
663.392648,90.031818
661.464181,89.896441
659.535714,89.625284
657.607247,90.634915
655.678780,92.763213
653.750313,93.482714
651.821846,91.453438
649.893379,88.845453
647.964912,87.861581
